Time(s)	V(102)	I(VDD)
0	0.0248756	-0.0497512
0.01	0.0743793	-0.0492562
0.02	0.12339	-0.0487661
0.03	0.171914	-0.0482809
0.04	0.219955	-0.0478005
0.05	0.267517	-0.0473248
0.06	0.314607	-0.0468539
0.07	0.361227	-0.0463877
0.08	0.407384	-0.0459262
0.09	0.453082	-0.0454692
0.1	0.498325	-0.0450167
0.11	0.543118	-0.0445688
0.12	0.587465	-0.0441254
0.13	0.631371	-0.0436863
0.14	0.67484	-0.0432516
0.15	0.717876	-0.0428212
0.16	0.760484	-0.0423952
0.17	0.802669	-0.0419733
0.18	0.844433	-0.0415557
0.19	0.885782	-0.0411422
0.2	0.926719	-0.0407328
0.21	0.96725	-0.0403275
0.22	1.00738	-0.0399262
0.23	1.0471	-0.039529
0.24	1.08644	-0.0391356
0.25	1.12538	-0.0387462
0.26	1.16393	-0.0383607
0.27	1.2021	-0.037979
0.28	1.23989	-0.0376011
0.29	1.2773	-0.037227
0.3	1.31435	-0.0368565
0.31	1.35102	-0.0364898
0.32	1.38733	-0.0361267
0.33	1.42327	-0.0357673
0.34	1.45886	-0.0354114
0.35	1.4941	-0.035059
0.36	1.52898	-0.0347102
0.37	1.56352	-0.0343648
0.38	1.59772	-0.0340228
0.39	1.63157	-0.0336843
0.4	1.66509	-0.0333491
0.41	1.69827	-0.0330173
0.42	1.73112	-0.0326888
0.43	1.76365	-0.0323635
0.44	1.79585	-0.0320415
0.45	1.82773	-0.0317227
0.46	1.8593	-0.031407
0.47	1.89055	-0.0310945
0.48	1.92149	-0.0307851
0.49	1.95212	-0.0304788
0.5	1.98245	-0.0301755
0.51	2.01247	-0.0298753
0.52	2.0422	-0.029578
0.53	2.07163	-0.0292837
0.54	2.10077	-0.0289923
0.55	2.12962	-0.0287038
0.56	2.15818	-0.0284182
0.57	2.18645	-0.0281355
0.58	2.21445	-0.0278555
0.59	2.24217	-0.0275783
0.6	2.26961	-0.0273039
0.61	2.29678	-0.0270322
0.62	2.32367	-0.0267633
0.63	2.3503	-0.026497
0.64	2.37667	-0.0262333
0.65	2.40277	-0.0259723
0.66	2.42861	-0.0257139
0.67	2.4542	-0.025458
0.68	2.47953	-0.0252047
0.69	2.50461	-0.0249539
0.7	2.52944	-0.0247056
0.71	2.55402	-0.0244598
0.72	2.57836	-0.0242164
0.73	2.60246	-0.0239754
0.74	2.62631	-0.0237369
0.75	2.64993	-0.0235007
0.76	2.67332	-0.0232668
0.77	2.69647	-0.0230353
0.78	2.71939	-0.0228061
0.79	2.74208	-0.0225792
0.8	2.76455	-0.0223545
0.81	2.78679	-0.0221321
0.82	2.80881	-0.0219119
0.83	2.83062	-0.0216938
0.84	2.8522	-0.021478
0.85	2.87357	-0.0212643
0.86	2.89473	-0.0210527
0.87	2.91568	-0.0208432
0.88	2.93642	-0.0206358
0.89	2.95695	-0.0204305
0.9	2.97728	-0.0202272
0.91	2.99741	-0.0200259
0.92	3.01733	-0.0198267
0.93	3.03706	-0.0196294
0.94	3.05659	-0.0194341
0.95	3.07593	-0.0192407
0.96	3.09508	-0.0190492
0.97	3.11403	-0.0188597
0.98	3.1328	-0.018672
0.99	3.15137	-0.0184863
1	3.16977	-0.0183023
1.01	3.18798	-0.0181202
1.02	3.20601	-0.0179399
1.03	3.22386	-0.0177614
1.04	3.24153	-0.0175847
1.05	3.25903	-0.0174097
1.06	3.27635	-0.0172365
1.07	3.29351	-0.0170649
1.08	3.31049	-0.0168951
1.09	3.3273	-0.016727
1.1	3.34394	-0.0165606
1.11	3.36042	-0.0163958
1.12	3.37673	-0.0162327
1.13	3.39288	-0.0160712
1.14	3.40888	-0.0159112
1.15	3.42471	-0.0157529
1.16	3.44038	-0.0155962
1.17	3.4559	-0.015441
1.18	3.47127	-0.0152873
1.19	3.48648	-0.0151352
1.2	3.50154	-0.0149846
1.21	3.51645	-0.0148355
1.22	3.53121	-0.0146879
1.23	3.54582	-0.0145418
1.24	3.56029	-0.0143971
1.25	3.57462	-0.0142538
1.26	3.5888	-0.014112
1.27	3.60284	-0.0139716
1.28	3.61674	-0.0138326
1.29	3.63051	-0.0136949
1.3	3.64414	-0.0135586
1.31	3.65763	-0.0134237
1.32	3.67098	-0.0132902
1.33	3.68421	-0.0131579
1.34	3.6973	-0.013027
1.35	3.71026	-0.0128974
1.36	3.7231	-0.012769
1.37	3.7358	-0.012642
1.38	3.74838	-0.0125162
1.39	3.76083	-0.0123917
1.4	3.77316	-0.0122684
1.41	3.78537	-0.0121463
1.42	3.79746	-0.0120254
1.43	3.80942	-0.0119058
1.44	3.82127	-0.0117873
1.45	3.833	-0.01167
1.46	3.84461	-0.0115539
1.47	3.85611	-0.0114389
1.48	3.86749	-0.0113251
1.49	3.87876	-0.0112124
1.5	3.88991	-0.0111009
1.51	3.90096	-0.0109904
1.52	3.91189	-0.0108811
1.53	3.92272	-0.0107728
1.54	3.93344	-0.0106656
1.55	3.94405	-0.0105595
1.56	3.95456	-0.0104544
1.57	3.96496	-0.0103504
1.58	3.97526	-0.0102474
1.59	3.98546	-0.0101454
1.6	3.99555	-0.0100445
1.61	4.00555	-0.00994452
1.62	4.01544	-0.00984557
1.63	4.02524	-0.00974761
1.64	4.03494	-0.00965062
1.65	4.04454	-0.00955459
1.66	4.05405	-0.00945952
1.67	4.06346	-0.0093654
1.68	4.07278	-0.00927221
1.69	4.08201	-0.00917995
1.7	4.09114	-0.0090886
1.71	4.10018	-0.00899817
1.72	4.10914	-0.00890864
1.73	4.118	-0.00881999
1.74	4.12678	-0.00873223
1.75	4.13547	-0.00864534
1.76	4.14407	-0.00855932
1.77	4.15258	-0.00847415
1.78	4.16102	-0.00838983
1.79	4.16936	-0.00830635
1.8	4.17763	-0.0082237
1.81	4.18581	-0.00814187
1.82	4.19391	-0.00806086
1.83	4.20193	-0.00798065
1.84	4.20988	-0.00790124
1.85	4.21774	-0.00782262
1.86	4.22552	-0.00774479
1.87	4.23323	-0.00766772
1.88	4.24086	-0.00759143
1.89	4.24841	-0.00751589
1.9	4.25589	-0.00744111
1.91	4.26329	-0.00736707
1.92	4.27062	-0.00729376
1.93	4.27788	-0.00722119
1.94	4.28507	-0.00714933
1.95	4.29218	-0.0070782
1.96	4.29922	-0.00700777
1.97	4.3062	-0.00693804
1.98	4.3131	-0.006869
1.99	4.31993	-0.00680065
2	4.3267	-0.00673299
2.01	4.3334	-0.00666599
2.02	4.34003	-0.00659966
2.03	4.3466	-0.00653399
2.04	4.3531	-0.00646898
2.05	4.35954	-0.00640461
2.06	4.36591	-0.00634088
2.07	4.37222	-0.00627779
2.08	4.37847	-0.00621533
2.09	4.38465	-0.00615348
2.1	4.39077	-0.00609225
2.11	4.39684	-0.00603163
2.12	4.40284	-0.00597162
2.13	4.40878	-0.0059122
2.14	4.41466	-0.00585337
2.15	4.42049	-0.00579513
2.16	4.42625	-0.00573746
2.17	4.43196	-0.00568038
2.18	4.43761	-0.00562385
2.19	4.44321	-0.0055679
2.2	4.44875	-0.00551249
2.21	4.45424	-0.00545764
2.22	4.45967	-0.00540334
2.23	4.46504	-0.00534957
2.24	4.47037	-0.00529634
2.25	4.47564	-0.00524364
2.26	4.48085	-0.00519147
2.27	4.48602	-0.00513981
2.28	4.49113	-0.00508867
2.29	4.4962	-0.00503804
2.3	4.50121	-0.00498791
2.31	4.50617	-0.00493828
2.32	4.51109	-0.00488914
2.33	4.51595	-0.00484049
2.34	4.52077	-0.00479233
2.35	4.52554	-0.00474464
2.36	4.53026	-0.00469743
2.37	4.53493	-0.00465069
2.38	4.53956	-0.00460442
2.39	4.54414	-0.0045586
2.4	4.54868	-0.00451324
2.41	4.55317	-0.00446833
2.42	4.55761	-0.00442387
2.43	4.56201	-0.00437985
2.44	4.56637	-0.00433627
2.45	4.57069	-0.00429313
2.46	4.57496	-0.00425041
2.47	4.57919	-0.00420812
2.48	4.58338	-0.00416624
2.49	4.58752	-0.00412479
2.5	4.59163	-0.00408375
2.51	4.59569	-0.00404311
2.52	4.59971	-0.00400288
2.53	4.60369	-0.00396305
2.54	4.60764	-0.00392362
2.55	4.61154	-0.00388458
2.56	4.61541	-0.00384592
2.57	4.61923	-0.00380766
2.58	4.62302	-0.00376977
2.59	4.62677	-0.00373226
2.6	4.63049	-0.00369512
2.61	4.63416	-0.00365836
2.62	4.6378	-0.00362195
2.63	4.64141	-0.00358591
2.64	4.64498	-0.00355023
2.65	4.64851	-0.00351491
2.66	4.65201	-0.00347993
2.67	4.65547	-0.00344531
2.68	4.6589	-0.00341103
2.69	4.66229	-0.00337709
2.7	4.66565	-0.00334348
2.71	4.66898	-0.00331021
2.72	4.67227	-0.00327728
2.73	4.67553	-0.00324467
2.74	4.67876	-0.00321238
2.75	4.68196	-0.00318042
2.76	4.68512	-0.00314877
2.77	4.68826	-0.00311744
2.78	4.69136	-0.00308642
2.79	4.69443	-0.00305571
2.8	4.69747	-0.00302531
2.81	4.70048	-0.0029952
2.82	4.70346	-0.0029654
2.83	4.70641	-0.00293589
2.84	4.70933	-0.00290668
2.85	4.71222	-0.00287776
2.86	4.71509	-0.00284912
2.87	4.71792	-0.00282077
2.88	4.72073	-0.00279271
2.89	4.72351	-0.00276492
2.9	4.72626	-0.00273741
2.91	4.72898	-0.00271017
2.92	4.73168	-0.0026832
2.93	4.73435	-0.0026565
2.94	4.73699	-0.00263007
2.95	4.73961	-0.0026039
2.96	4.7422	-0.00257799
2.97	4.74477	-0.00255234
2.98	4.74731	-0.00252694
2.99	4.74982	-0.0025018
3	4.75231	-0.00247691
3.01	4.75477	-0.00245226
3.02	4.75721	-0.00242786
3.03	4.75963	-0.0024037
3.04	4.76202	-0.00237978
3.05	4.76439	-0.00235611
3.06	4.76673	-0.00233266
3.07	4.76905	-0.00230945
3.08	4.77135	-0.00228647
3.09	4.77363	-0.00226372
3.1	4.77588	-0.0022412
3.11	4.77811	-0.0022189
3.12	4.78032	-0.00219682
3.13	4.7825	-0.00217496
3.14	4.78467	-0.00215332
3.15	4.78681	-0.00213189
3.16	4.78893	-0.00211068
3.17	4.79103	-0.00208968
3.18	4.79311	-0.00206888
3.19	4.79517	-0.0020483
3.2	4.79721	-0.00202792
3.21	4.79923	-0.00200774
3.22	4.80122	-0.00198776
3.23	4.8032	-0.00196798
3.24	4.80516	-0.0019484
3.25	4.8071	-0.00192901
3.26	4.80902	-0.00190982
3.27	4.81092	-0.00189082
3.28	4.8128	-0.001872
3.29	4.81466	-0.00185337
3.3	4.81651	-0.00183493
3.31	4.81833	-0.00181667
3.32	4.82014	-0.0017986
3.33	4.82193	-0.0017807
3.34	4.8237	-0.00176298
3.35	4.82546	-0.00174544
3.36	4.82719	-0.00172807
3.37	4.82891	-0.00171088
3.38	4.83061	-0.00169386
3.39	4.8323	-0.001677
3.4	4.83397	-0.00166031
3.41	4.83562	-0.00164379
3.42	4.83726	-0.00162744
3.43	4.83888	-0.00161124
3.44	4.84048	-0.00159521
3.45	4.84207	-0.00157934
3.46	4.84364	-0.00156362
3.47	4.84519	-0.00154807
3.48	4.84673	-0.00153266
3.49	4.84826	-0.00151741
3.5	4.84977	-0.00150231
3.51	4.85126	-0.00148737
3.52	4.85274	-0.00147257
3.53	4.85421	-0.00145791
3.54	4.85566	-0.00144341
3.55	4.8571	-0.00142904
3.56	4.85852	-0.00141482
3.57	4.85993	-0.00140075
3.58	4.86132	-0.00138681
3.59	4.8627	-0.00137301
3.6	4.86407	-0.00135935
3.61	4.86542	-0.00134582
3.62	4.86676	-0.00133243
3.63	4.86808	-0.00131917
3.64	4.8694	-0.00130605
3.65	4.87069	-0.00129305
3.66	4.87198	-0.00128019
3.67	4.87326	-0.00126745
3.68	4.87452	-0.00125484
3.69	4.87577	-0.00124235
3.7	4.877	-0.00122999
3.71	4.87823	-0.00121775
3.72	4.87944	-0.00120563
3.73	4.88064	-0.00119364
3.74	4.88182	-0.00118176
3.75	4.883	-0.00117
3.76	4.88416	-0.00115836
3.77	4.88532	-0.00114683
3.78	4.88646	-0.00113542
3.79	4.88759	-0.00112412
3.8	4.88871	-0.00111294
3.81	4.88981	-0.00110186
3.82	4.89091	-0.0010909
3.83	4.892	-0.00108005
3.84	4.89307	-0.0010693
3.85	4.89413	-0.00105866
3.86	4.89519	-0.00104813
3.87	4.89623	-0.0010377
3.88	4.89726	-0.00102737
3.89	4.89829	-0.00101715
3.9	4.8993	-0.00100703
3.91	4.9003	-0.000997007
3.92	4.90129	-0.000987087
3.93	4.90227	-0.000977265
3.94	4.90325	-0.000967541
3.95	4.90421	-0.000957914
3.96	4.90516	-0.000948382
3.97	4.90611	-0.000938946
3.98	4.90704	-0.000929603
3.99	4.90796	-0.000920353
4	4.90888	-0.000911195
4.01	4.90979	-0.000902129
4.02	4.91068	-0.000893152
4.03	4.91157	-0.000884265
4.04	4.91245	-0.000875467
4.05	4.91332	-0.000866756
4.06	4.91419	-0.000858131
4.07	4.91504	-0.000849593
4.08	4.91589	-0.000841139
4.09	4.91672	-0.000832769
4.1	4.91755	-0.000824483
4.11	4.91837	-0.000816279
4.12	4.91918	-0.000808157
4.13	4.91999	-0.000800116
4.14	4.92078	-0.000792154
4.15	4.92157	-0.000784272
4.16	4.92235	-0.000776469
4.17	4.92313	-0.000768742
4.18	4.92389	-0.000761093
4.19	4.92465	-0.00075352
4.2	4.9254	-0.000746022
4.21	4.92614	-0.000738599
4.22	4.92687	-0.00073125
4.23	4.9276	-0.000723974
4.24	4.92832	-0.00071677
4.25	4.92904	-0.000709638
4.26	4.92974	-0.000702577
4.27	4.93044	-0.000695586
4.28	4.93113	-0.000688665
4.29	4.93182	-0.000681813
4.3	4.9325	-0.000675028
4.31	4.93317	-0.000668312
4.32	4.93383	-0.000661662
4.33	4.93449	-0.000655078
4.34	4.93514	-0.00064856
4.35	4.93579	-0.000642107
4.36	4.93643	-0.000635718
4.37	4.93706	-0.000629392
4.38	4.93769	-0.000623129
4.39	4.93831	-0.000616929
4.4	4.93892	-0.000610791
4.41	4.93953	-0.000604713
4.42	4.94013	-0.000598696
4.43	4.94073	-0.000592739
4.44	4.94132	-0.000586841
4.45	4.9419	-0.000581002
4.46	4.94248	-0.000575221
4.47	4.94305	-0.000569497
4.48	4.94362	-0.00056383
4.49	4.94418	-0.00055822
4.5	4.94473	-0.000552666
4.51	4.94528	-0.000547167
4.52	4.94583	-0.000541722
4.53	4.94637	-0.000536332
4.54	4.9469	-0.000530995
4.55	4.94743	-0.000525712
4.56	4.94795	-0.000520481
4.57	4.94847	-0.000515302
4.58	4.94898	-0.000510174
4.59	4.94949	-0.000505098
4.6	4.94999	-0.000500072
4.61	4.95049	-0.000495096
4.62	4.95098	-0.00049017
4.63	4.95147	-0.000485293
4.64	4.95195	-0.000480464
4.65	4.95243	-0.000475683
4.66	4.95291	-0.00047095
4.67	4.95337	-0.000466264
4.68	4.95384	-0.000461624
4.69	4.9543	-0.000457031
4.7	4.95475	-0.000452484
4.71	4.9552	-0.000447981
4.72	4.95565	-0.000443524
4.73	4.95609	-0.000439111
4.74	4.95653	-0.000434741
4.75	4.95696	-0.000430416
4.76	4.95739	-0.000426133
4.77	4.95781	-0.000421893
4.78	4.95823	-0.000417695
4.79	4.95865	-0.000413539
4.8	4.95906	-0.000409424
4.81	4.95947	-0.00040535
4.82	4.95987	-0.000401317
4.83	4.96027	-0.000397323
4.84	4.96066	-0.00039337
4.85	4.96105	-0.000389456
4.86	4.96144	-0.000385581
4.87	4.96183	-0.000381744
4.88	4.96221	-0.000377946
4.89	4.96258	-0.000374185
4.9	4.96295	-0.000370462
4.91	4.96332	-0.000366775
4.92	4.96369	-0.000363126
4.93	4.96405	-0.000359513
4.94	4.96441	-0.000355936
4.95	4.96476	-0.000352394
4.96	4.96511	-0.000348887
4.97	4.96546	-0.000345416
4.98	4.9658	-0.000341979
4.99	4.96614	-0.000338576
5	4.96648	-0.000335207
